[x[mm], Area[m], Velocity[m/s]],[Pressure[Pa], Temperature[K]]
5.01 7.85389e-05 30.6302 270000 403.15
5.02 7.8536e-05 30.6313 270000 403.15
5.03 7.85312e-05 30.6332 270000 403.15
5.04 7.85246e-05 30.6358 270000 403.15
5.05 7.8516e-05 30.6392 270000 403.15
5.06 7.85055e-05 30.6433 269999 403.15
5.07 7.84932e-05 30.6481 269999 403.15
5.08 7.84789e-05 30.6537 269999 403.15
5.09 7.84627e-05 30.6601 269999 403.15
5.1 7.84446e-05 30.6672 269998 403.149
5.11 7.84245e-05 30.675 269998 403.149
5.12 7.84026e-05 30.6836 269998 403.149
5.13 7.83788e-05 30.693 269997 403.149
5.14 7.8353e-05 30.7031 269997 403.149
5.15 7.83253e-05 30.714 269996 403.149
5.16 7.82957e-05 30.7257 269996 403.149
5.17 7.82642e-05 30.7381 269995 403.148
5.18 7.82308e-05 30.7513 269995 403.148
5.19 7.81954e-05 30.7652 269994 403.148
5.2 7.81581e-05 30.78 269993 403.148
5.21 7.81188e-05 30.7955 269993 403.147
5.22 7.80777e-05 30.8118 269992 403.147
5.23 7.80346e-05 30.8289 269991 403.147
5.24 7.79895e-05 30.8467 269990 403.147
5.25 7.79425e-05 30.8654 269989 403.146
5.26 7.78936e-05 30.8848 269989 403.146
5.27 7.78427e-05 30.9051 269988 403.146
5.28 7.77898e-05 30.9262 269987 403.145
5.29 7.7735e-05 30.9481 269986 403.145
5.3 7.76782e-05 30.9707 269985 403.145
5.31 7.76194e-05 30.9943 269984 403.144
5.32 7.75587e-05 31.0186 269983 403.144
5.33 7.7496e-05 31.0438 269981 403.143
5.34 7.74313e-05 31.0698 269980 403.143
5.35 7.73646e-05 31.0967 269979 403.143
5.36 7.72959e-05 31.1244 269978 403.142
5.37 7.72253e-05 31.153 269977 403.142
5.38 7.71526e-05 31.1824 269975 403.141
5.39 7.70779e-05 31.2127 269974 403.141
5.4 7.70012e-05 31.2439 269972 403.14
5.41 7.69224e-05 31.276 269971 403.14
5.42 7.68417e-05 31.309 269969 403.139
5.43 7.67588e-05 31.3428 269968 403.139
5.44 7.6674e-05 31.3776 269966 403.138
5.45 7.65871e-05 31.4133 269965 403.138
5.46 7.64981e-05 31.45 269963 403.137
5.47 7.64071e-05 31.4876 269961 403.136
5.48 7.63139e-05 31.5261 269960 403.136
5.49 7.62187e-05 31.5656 269958 403.135
5.5 7.61214e-05 31.606 269956 403.135
5.51 7.6022e-05 31.6475 269954 403.134
5.52 7.59205e-05 31.6899 269952 403.133
5.53 7.58169e-05 31.7334 269950 403.132
5.54 7.57111e-05 31.7778 269948 403.132
5.55 7.56032e-05 31.8233 269946 403.131
5.56 7.54932e-05 31.8698 269944 403.13
5.57 7.5381e-05 31.9174 269942 403.129
5.58 7.52666e-05 31.966 269939 403.129
5.59 7.515e-05 32.0157 269937 403.128
5.6 7.50312e-05 32.0665 269935 403.127
5.61 7.49103e-05 32.1185 269932 403.126
5.62 7.47871e-05 32.1715 269930 403.125
5.63 7.46617e-05 32.2257 269927 403.124
5.64 7.4534e-05 32.281 269925 403.124
5.65 7.44041e-05 32.3375 269922 403.123
5.66 7.42719e-05 32.3952 269919 403.122
5.67 7.41374e-05 32.4541 269917 403.121
5.68 7.40006e-05 32.5143 269914 403.12
5.69 7.38615e-05 32.5757 269911 403.119
5.7 7.37201e-05 32.6383 269908 403.118
5.71 7.35763e-05 32.7022 269905 403.117
5.72 7.34302e-05 32.7675 269902 403.115
5.73 7.32817e-05 32.834 269899 403.114
5.74 7.31308e-05 32.902 269895 403.113
5.75 7.29775e-05 32.9712 269892 403.112
5.76 7.28217e-05 33.0419 269889 403.111
5.77 7.26635e-05 33.114 269885 403.11
5.78 7.25028e-05 33.1876 269882 403.108
5.79 7.23396e-05 33.2626 269878 403.107
5.8 7.2174e-05 33.3392 269874 403.106
5.81 7.20057e-05 33.4172 269871 403.104
5.82 7.18349e-05 33.4969 269867 403.103
5.83 7.16616e-05 33.5781 269863 403.102
5.84 7.14856e-05 33.6609 269859 403.1
5.85 7.1307e-05 33.7454 269855 403.099
5.86 7.11258e-05 33.8316 269850 403.097
5.87 7.09418e-05 33.9195 269846 403.096
5.88 7.07552e-05 34.0091 269842 403.094
5.89 7.05658e-05 34.1006 269837 403.093
5.9 7.03737e-05 34.1939 269833 403.091
5.91 7.01788e-05 34.2891 269828 403.089
5.92 6.9981e-05 34.3862 269823 403.088
5.93 6.97804e-05 34.4852 269818 403.086
5.94 6.95769e-05 34.5863 269813 403.084
5.95 6.93704e-05 34.6894 269808 403.082
5.96 6.9161e-05 34.7946 269803 403.081
5.97 6.89486e-05 34.902 269797 403.079
5.98 6.87332e-05 35.0116 269792 403.077
5.99 6.85147e-05 35.1235 269786 403.075
6 6.8293e-05 35.2377 269780 403.073
6.01 6.80682e-05 35.3543 269774 403.071
6.02 6.78402e-05 35.4733 269768 403.068
6.03 6.7609e-05 35.5949 269762 403.066
6.04 6.73744e-05 35.719 269755 403.064
6.05 6.71365e-05 35.8458 269749 403.062
6.06 6.68952e-05 35.9754 269742 403.059
6.07 6.66504e-05 36.1077 269735 403.057
6.08 6.64021e-05 36.243 269728 403.054
6.09 6.61502e-05 36.3812 269721 403.052
6.1 6.58946e-05 36.5225 269713 403.049
6.11 6.56354e-05 36.667 269706 403.046
6.12 6.53724e-05 36.8147 269698 403.044
6.13 6.51055e-05 36.9659 269690 403.041
6.14 6.48347e-05 37.1205 269681 403.038
6.15 6.45599e-05 37.2787 269673 403.035
6.16 6.4281e-05 37.4407 269664 403.032
6.17 6.39979e-05 37.6065 269655 403.029
6.18 6.37106e-05 37.7764 269646 403.025
6.19 6.34189e-05 37.9503 269636 403.022
6.2 6.31227e-05 38.1286 269627 403.019
6.21 6.2822e-05 38.3114 269617 403.015
6.22 6.25165e-05 38.4988 269606 403.011
6.23 6.22063e-05 38.691 269595 403.008
6.24 6.18911e-05 38.8882 269584 403.004
6.25 6.15709e-05 39.0907 269573 403
6.26 6.12454e-05 39.2986 269561 402.996
6.27 6.09146e-05 39.5123 269549 402.991
6.28 6.05782e-05 39.7319 269536 402.987
6.29 6.02362e-05 39.9577 269523 402.982
6.3 5.98882e-05 40.19 269510 402.978
6.31 5.95341e-05 40.4292 269496 402.973
6.32 5.91738e-05 40.6756 269482 402.968
6.33 5.88069e-05 40.9295 269467 402.962
6.34 5.84332e-05 41.1914 269451 402.957
6.35 5.80525e-05 41.4617 269435 402.951
6.36 5.76644e-05 41.7408 269418 402.945
6.37 5.72687e-05 42.0293 269401 402.939
6.38 5.68649e-05 42.3278 269383 402.933
6.39 5.64528e-05 42.6368 269364 402.926
6.4 5.60319e-05 42.9571 269344 402.919
6.41 5.56018e-05 43.2894 269323 402.912
6.42 5.51619e-05 43.6345 269302 402.904
6.43 5.47118e-05 43.9934 269279 402.896
6.44 5.42507e-05 44.3671 269255 402.888
6.45 5.37781e-05 44.7568 269230 402.879
6.46 5.3293e-05 45.1639 269204 402.87
6.47 5.27947e-05 45.5897 269176 402.86
6.48 5.22822e-05 46.0362 269146 402.849
6.49 5.17542e-05 46.5051 269115 402.838
6.5 5.12095e-05 46.999 269082 402.827
6.51 5.06465e-05 47.5204 269046 402.814
6.52 5.00634e-05 48.0727 269008 402.801
6.53 4.94579e-05 48.6596 268968 402.786
6.54 4.88275e-05 49.286 268923 402.771
6.55 4.81688e-05 49.9576 268876 402.754
6.56 4.74777e-05 50.6818 268823 402.736
6.57 4.67489e-05 51.4681 268766 402.715
6.58 4.59755e-05 52.3289 268702 402.693
6.59 4.51478e-05 53.2818 268629 402.667
6.6 4.4252e-05 54.3514 268547 402.638
6.61 4.32671e-05 55.576 268451 402.604
6.62 4.21574e-05 57.0198 268335 402.563
6.63 4.08537e-05 58.8069 268188 402.511
6.64 3.91778e-05 61.2542 267980 402.438
6.65 3.52565e-05 67.4812 267430 402.243
6.66 3.13812e-05 75.0405 266696 401.983
6.67 2.98492e-05 78.7907 266292 401.839
6.68 2.87046e-05 81.8915 265941 401.715
6.69 2.7761e-05 84.6601 265616 401.599
6.7 2.69462e-05 87.2205 265306 401.488
6.71 2.62231e-05 89.6368 265004 401.381
6.72 2.55697e-05 91.947 264708 401.275
6.73 2.49715e-05 94.1758 264415 401.171
6.74 2.44186e-05 96.3405 264124 401.067
6.75 2.39035e-05 98.4535 263834 400.963
6.76 2.34209e-05 100.524 263543 400.859
6.77 2.29664e-05 102.56 263252 400.754
6.78 2.25366e-05 104.567 262959 400.649
6.79 2.21287e-05 106.549 262664 400.544
6.8 2.17404e-05 108.51 262368 400.437
6.81 2.13699e-05 110.455 262068 400.329
6.82 2.10154e-05 112.384 261766 400.221
6.83 2.06757e-05 114.301 261461 400.111
6.84 2.03494e-05 116.208 261152 400
6.85 2.00356e-05 118.106 260841 399.887
6.86 1.97334e-05 119.997 260525 399.773
6.87 1.94419e-05 121.882 260206 399.658
6.88 1.91604e-05 123.763 259883 399.541
6.89 1.88882e-05 125.64 259555 399.422
6.9 1.86249e-05 127.514 259224 399.302
6.91 1.83699e-05 129.386 258888 399.18
6.92 1.81226e-05 131.258 258548 399.057
6.93 1.78827e-05 133.129 258204 398.931
6.94 1.76498e-05 135.001 257854 398.804
6.95 1.74235e-05 136.873 257500 398.675
6.96 1.72036e-05 138.747 257142 398.544
6.97 1.69896e-05 140.623 256778 398.412
6.98 1.67813e-05 142.501 256409 398.277
6.99 1.65785e-05 144.382 256036 398.14
7 1.63809e-05 146.267 255657 398.001
7.01 1.61883e-05 148.155 255273 397.86
7.02 1.60005e-05 150.046 254883 397.717
7.03 1.58173e-05 151.942 254488 397.572
7.04 1.56385e-05 153.843 254088 397.425
7.05 1.54639e-05 155.748 253682 397.275
7.06 1.52934e-05 157.658 253271 397.124
7.07 1.51269e-05 159.574 252854 396.969
7.08 1.49641e-05 161.495 252431 396.813
7.09 1.4805e-05 163.422 252003 396.654
7.1 1.46494e-05 165.355 251568 396.493
7.11 1.44973e-05 167.294 251128 396.33
7.12 1.43484e-05 169.239 250681 396.163
7.13 1.42028e-05 171.191 250228 395.995
7.14 1.40602e-05 173.149 249770 395.824
7.15 1.39206e-05 175.115 249305 395.65
7.16 1.37839e-05 177.087 248834 395.474
7.17 1.36501e-05 179.067 248356 395.295
7.18 1.3519e-05 181.054 247872 395.114
7.19 1.33905e-05 183.048 247382 394.929
7.2 1.32647e-05 185.05 246885 394.742
7.21 1.31413e-05 187.06 246381 394.553
7.22 1.30204e-05 189.078 245871 394.36
7.23 1.29018e-05 191.103 245354 394.165
7.24 1.27856e-05 193.137 244830 393.966
7.25 1.26716e-05 195.179 244299 393.765
7.26 1.25599e-05 197.229 243762 393.561
7.27 1.24502e-05 199.288 243217 393.354
7.28 1.23427e-05 201.355 242666 393.144
7.29 1.22372e-05 203.431 242107 392.93
7.3 1.21336e-05 205.516 241542 392.714
7.31 1.2032e-05 207.609 240969 392.494
7.32 1.19324e-05 209.712 240389 392.272
7.33 1.18345e-05 211.824 239801 392.046
7.34 1.17385e-05 213.945 239206 391.817
7.35 1.16442e-05 216.075 238604 391.584
7.36 1.15517e-05 218.215 237994 391.348
7.37 1.14608e-05 220.364 237377 391.109
7.38 1.13717e-05 222.523 236752 390.866
7.39 1.12841e-05 224.691 236119 390.62
7.4 1.11981e-05 226.87 235479 390.37
7.41 1.11137e-05 229.058 234831 390.117
7.42 1.10308e-05 231.256 234175 389.86
7.43 1.09494e-05 233.465 233511 389.599
7.44 1.08694e-05 235.684 232839 389.335
7.45 1.07909e-05 237.913 232159 389.067
7.46 1.07138e-05 240.153 231470 388.795
7.47 1.06381e-05 242.403 230774 388.519
7.48 1.05637e-05 244.665 230069 388.24
7.49 1.04907e-05 246.937 229356 387.956
7.5 1.04189e-05 249.22 228635 387.669
7.51 1.03485e-05 251.514 227905 387.377
7.52 1.02793e-05 253.82 227167 387.081
7.53 1.02113e-05 256.137 226420 386.781
7.54 1.01445e-05 258.466 225664 386.476
7.55 1.0079e-05 260.807 224900 386.168
7.56 1.00146e-05 263.16 224127 385.855
7.57 9.95133e-06 265.525 223344 385.537
7.58 9.88922e-06 267.902 222553 385.215
7.59 9.82823e-06 270.292 221753 384.888
7.6 9.76833e-06 272.695 220943 384.557
7.61 9.70952e-06 275.111 220124 384.221
7.62 9.65176e-06 277.54 219296 383.88
7.63 9.59505e-06 279.982 218458 383.534
7.64 9.53937e-06 282.439 217610 383.183
7.65 9.4847e-06 284.909 216753 382.827
7.66 9.43103e-06 287.394 215886 382.466
7.67 9.37835e-06 289.894 215009 382.099
7.68 9.32663e-06 292.409 214121 381.728
7.69 9.27587e-06 294.939 213223 381.35
7.7 9.22605e-06 297.485 212315 380.967
7.71 9.17716e-06 300.048 211396 380.578
7.72 9.12919e-06 302.627 210466 380.183
7.73 9.08212e-06 305.223 209525 379.782
7.74 9.03593e-06 307.838 208573 379.375
7.75 8.99063e-06 310.471 207609 378.962
7.76 8.9462e-06 313.122 206634 378.541
7.77 8.90262e-06 315.794 205646 378.115
7.78 8.85988e-06 318.486 204646 377.681
7.79 8.81798e-06 321.199 203634 377.24
7.8 8.7769e-06 323.935 202608 376.792
7.81 8.73664e-06 326.694 201569 376.336
7.82 8.69718e-06 329.476 200516 375.872
7.83 8.65852e-06 332.285 199449 375.4
7.84 8.62064e-06 335.12 198366 374.919
7.85 8.58353e-06 337.983 197269 374.43
7.86 8.54719e-06 340.875 196155 373.931
7.87 8.51162e-06 343.8 195025 373.422
7.88 8.47679e-06 346.757 193877 372.904
7.89 8.4427e-06 349.75 192710 372.374
7.9 8.40935e-06 352.781 191524 371.833
7.91 8.37672e-06 355.853 190318 371.28
7.92 8.34481e-06 358.969 189089 370.715
7.93 8.31362e-06 362.133 187837 370.135
7.94 8.28313e-06 365.348 186561 369.541
7.95 8.25333e-06 368.62 185256 368.931
7.96 8.22423e-06 371.954 183923 368.304
7.97 8.19581e-06 375.356 182558 367.658
7.98 8.16807e-06 378.835 181157 366.992
7.99 8.141e-06 382.4 179717 366.303
8 8.11459e-06 386.061 178233 365.589
8.01 8.08885e-06 389.834 176700 364.846
8.02 8.06376e-06 393.734 175110 364.07
8.03 8.03932e-06 397.785 173453 363.256
8.04 8.01552e-06 402.014 171720 362.398
8.05 7.99236e-06 406.46 169892 361.486
8.06 7.96984e-06 411.176 167949 360.508
8.07 7.94794e-06 416.238 165858 359.446
8.08 7.92667e-06 421.766 163570 358.272
8.09 7.90601e-06 427.957 161002 356.94
8.1 7.88597e-06 435.186 158000 355.361
8.11 7.86654e-06 444.337 154199 353.33
8.12 7.84772e-06 458.634 148281 350.089
8.13 7.8295e-06 684.719 73947.7 297.185
8.14 7.81188e-06 683.764 74300.9 297.519
8.15 7.79486e-06 682.834 74645.5 297.843
8.16 7.77842e-06 681.931 74981.1 298.158
8.17 7.76258e-06 681.053 75307.6 298.463
8.18 7.74731e-06 680.203 75624.8 298.758
8.19 7.73264e-06 679.38 75932.4 299.044
8.2 7.71853e-06 678.584 76230.3 299.32
8.21 7.70501e-06 677.816 76518.3 299.586
8.22 7.69206e-06 677.076 76796.1 299.842
8.23 7.67968e-06 676.365 77063.7 300.087
8.24 7.66786e-06 675.683 77320.7 300.323
8.25 7.65661e-06 675.03 77567.1 300.548
8.26 7.64593e-06 674.407 77802.7 300.763
8.27 7.6358e-06 673.813 78027.2 300.967
8.28 7.62624e-06 673.25 78240.6 301.16
8.29 7.61723e-06 672.717 78442.6 301.343
8.3 7.60877e-06 672.216 78633.2 301.516
8.31 7.60087e-06 671.745 78812.2 301.677
8.32 7.59352e-06 671.305 78979.5 301.828
8.33 7.58673e-06 670.897 79134.8 301.967
8.34 7.58048e-06 670.521 79278.3 302.096
8.35 7.57477e-06 670.177 79409.6 302.214
8.36 7.56962e-06 669.865 79528.7 302.321
8.37 7.56501e-06 669.585 79635.5 302.416
8.38 7.56094e-06 669.338 79730 302.501
8.39 7.55742e-06 669.124 79812 302.574
8.4 7.55444e-06 668.942 79881.6 302.636
8.41 7.55201e-06 668.793 79938.5 302.687
8.42 7.55011e-06 668.677 79982.9 302.726
8.43 7.54876e-06 668.594 80014.6 302.754
8.44 7.54795e-06 668.545 80033.6 302.771
8.45 7.54768e-06 668.528 80040 302.777
8.46 7.5562e-06 669.05 79840.1 302.599
8.47 7.56473e-06 669.571 79641.2 302.421
8.48 7.57326e-06 670.09 79443.2 302.244
8.49 7.5818e-06 670.607 79246.1 302.067
8.5 7.59034e-06 671.122 79049.8 301.891
8.51 7.59889e-06 671.636 78854.4 301.715
8.52 7.60744e-06 672.148 78659.9 301.54
8.53 7.61599e-06 672.658 78466.3 301.365
8.54 7.62456e-06 673.166 78273.5 301.19
8.55 7.63312e-06 673.673 78081.6 301.016
8.56 7.64169e-06 674.178 77890.5 300.842
8.57 7.65027e-06 674.682 77700.3 300.669
8.58 7.65885e-06 675.183 77510.9 300.497
8.59 7.66743e-06 675.684 77322.3 300.324
8.6 7.67602e-06 676.182 77134.5 300.152
8.61 7.68462e-06 676.679 76947.6 299.981
8.62 7.69322e-06 677.175 76761.4 299.81
8.63 7.70182e-06 677.669 76576.1 299.639
8.64 7.71043e-06 678.161 76391.5 299.469
8.65 7.71905e-06 678.652 76207.8 299.299
8.66 7.72767e-06 679.141 76024.8 299.13
8.67 7.73629e-06 679.628 75842.6 298.961
8.68 7.74492e-06 680.115 75661.1 298.792
8.69 7.75355e-06 680.599 75480.5 298.624
8.7 7.76219e-06 681.082 75300.5 298.456
8.71 7.77083e-06 681.564 75121.4 298.289
8.72 7.77948e-06 682.044 74943 298.122
8.73 7.78813e-06 682.523 74765.3 297.955
8.74 7.79679e-06 683 74588.4 297.789
8.75 7.80545e-06 683.476 74412.2 297.624
8.76 7.81412e-06 683.95 74236.7 297.458
8.77 7.82279e-06 684.423 74062 297.293
8.78 7.83147e-06 684.894 73888 297.128
8.79 7.84015e-06 685.364 73714.7 296.964
8.8 7.84884e-06 685.833 73542 296.8
8.81 7.85753e-06 686.3 73370.1 296.637
8.82 7.86623e-06 686.766 73198.9 296.474
8.83 7.87493e-06 687.231 73028.4 296.311
8.84 7.88363e-06 687.694 72858.6 296.148
8.85 7.89234e-06 688.156 72689.5 295.986
8.86 7.90106e-06 688.616 72521 295.825
8.87 7.90978e-06 689.075 72353.2 295.663
8.88 7.9185e-06 689.533 72186.1 295.503
8.89 7.92723e-06 689.99 72019.7 295.342
8.9 7.93597e-06 690.445 71853.9 295.182
8.91 7.94471e-06 690.899 71688.7 295.022
8.92 7.95345e-06 691.351 71524.2 294.862
8.93 7.9622e-06 691.803 71360.4 294.703
8.94 7.97095e-06 692.253 71197.2 294.544
8.95 7.97971e-06 692.701 71034.7 294.386
8.96 7.98847e-06 693.149 70872.8 294.228
8.97 7.99724e-06 693.595 70711.5 294.07
8.98 8.00602e-06 694.04 70550.8 293.912
8.99 8.01479e-06 694.484 70390.8 293.755
9 8.02358e-06 694.926 70231.4 293.598
9.01 8.03236e-06 695.367 70072.5 293.442
9.02 8.04116e-06 695.808 69914.4 293.286
9.03 8.04995e-06 696.246 69756.8 293.13
9.04 8.05875e-06 696.684 69599.8 292.975
9.05 8.06756e-06 697.121 69443.4 292.819
9.06 8.07637e-06 697.556 69287.6 292.665
9.07 8.08519e-06 697.99 69132.4 292.51
9.08 8.09401e-06 698.423 68977.8 292.356
9.09 8.10284e-06 698.855 68823.8 292.202
9.1 8.11167e-06 699.285 68670.3 292.049
9.11 8.1205e-06 699.715 68517.5 291.895
9.12 8.12934e-06 700.143 68365.2 291.742
9.13 8.13819e-06 700.57 68213.5 291.59
9.14 8.14704e-06 700.996 68062.3 291.438
9.15 8.15589e-06 701.421 67911.7 291.286
9.16 8.16475e-06 701.845 67761.7 291.134
9.17 8.17362e-06 702.267 67612.2 290.983
9.18 8.18248e-06 702.689 67463.3 290.832
9.19 8.19136e-06 703.11 67314.9 290.681
9.2 8.20024e-06 703.529 67167.1 290.53
9.21 8.20912e-06 703.947 67019.8 290.38
9.22 8.21801e-06 704.364 66873 290.23
9.23 8.2269e-06 704.781 66726.8 290.081
9.24 8.2358e-06 705.196 66581.1 289.932
9.25 8.2447e-06 705.61 66436 289.783
9.26 8.25361e-06 706.023 66291.4 289.634
9.27 8.26252e-06 706.434 66147.3 289.486
9.28 8.27144e-06 706.845 66003.7 289.338
9.29 8.28036e-06 707.255 65860.7 289.19
9.3 8.28929e-06 707.664 65718.1 289.042
9.31 8.29822e-06 708.072 65576.1 288.895
9.32 8.30716e-06 708.478 65434.6 288.748
9.33 8.3161e-06 708.884 65293.5 288.601
9.34 8.32505e-06 709.289 65153 288.455
9.35 8.334e-06 709.692 65013 288.309
9.36 8.34295e-06 710.095 64873.5 288.163
9.37 8.35191e-06 710.497 64734.5 288.018
9.38 8.36088e-06 710.898 64595.9 287.872
9.39 8.36985e-06 711.297 64457.9 287.727
9.4 8.37882e-06 711.696 64320.3 287.583
9.41 8.3878e-06 712.094 64183.3 287.438
9.42 8.39679e-06 712.491 64046.7 287.294
9.43 8.40578e-06 712.886 63910.6 287.15
9.44 8.41477e-06 713.281 63774.9 287.007
9.45 8.42377e-06 713.675 63639.7 286.863
9.46 8.43277e-06 714.068 63505.1 286.72
9.47 8.44178e-06 714.46 63370.8 286.577
9.48 8.4508e-06 714.851 63237.1 286.435
9.49 8.45981e-06 715.241 63103.8 286.292
9.5 8.46884e-06 715.631 62970.9 286.15
9.51 8.47786e-06 716.019 62838.5 286.009
9.52 8.4869e-06 716.406 62706.6 285.867
9.53 8.49593e-06 716.793 62575.1 285.726
9.54 8.50498e-06 717.178 62444.1 285.585
9.55 8.51402e-06 717.563 62313.5 285.444
9.56 8.52308e-06 717.947 62183.4 285.304
9.57 8.53213e-06 718.329 62053.7 285.163
9.58 8.54119e-06 718.711 61924.4 285.023
9.59 8.55026e-06 719.092 61795.6 284.884
9.6 8.55933e-06 719.473 61667.2 284.744
9.61 8.56841e-06 719.852 61539.3 284.605
9.62 8.57749e-06 720.23 61411.7 284.466
9.63 8.58657e-06 720.608 61284.6 284.327
9.64 8.59566e-06 720.984 61158 284.189
9.65 8.60476e-06 721.36 61031.7 284.051
9.66 8.61386e-06 721.735 60905.9 283.913
9.67 8.62296e-06 722.109 60780.5 283.775
9.68 8.63207e-06 722.483 60655.5 283.637
9.69 8.64119e-06 722.855 60531 283.5
9.7 8.65031e-06 723.226 60406.8 283.363
9.71 8.65943e-06 723.597 60283.1 283.226
9.72 8.66856e-06 723.967 60159.8 283.09
9.73 8.67769e-06 724.336 60036.8 282.953
9.74 8.68683e-06 724.704 59914.3 282.817
9.75 8.69598e-06 725.072 59792.2 282.681
9.76 8.70512e-06 725.438 59670.5 282.546
9.77 8.71428e-06 725.804 59549.1 282.41
9.78 8.72343e-06 726.169 59428.2 282.275
9.79 8.7326e-06 726.533 59307.7 282.14
9.8 8.74176e-06 726.897 59187.5 282.006
9.81 8.75094e-06 727.259 59067.8 281.871
9.82 8.76011e-06 727.621 58948.4 281.737
9.83 8.76929e-06 727.982 58829.5 281.603
9.84 8.77848e-06 728.342 58710.9 281.469
9.85 8.78767e-06 728.701 58592.7 281.336
9.86 8.79687e-06 729.06 58474.8 281.202
9.87 8.80607e-06 729.418 58357.4 281.069
9.88 8.81528e-06 729.775 58240.3 280.936
9.89 8.82449e-06 730.131 58123.6 280.804
9.9 8.8337e-06 730.486 58007.3 280.671
9.91 8.84292e-06 730.841 57891.4 280.539
9.92 8.85215e-06 731.195 57775.8 280.407
9.93 8.86138e-06 731.548 57660.6 280.275
9.94 8.87061e-06 731.901 57545.7 280.144
9.95 8.87985e-06 732.253 57431.2 280.012
9.96 8.8891e-06 732.604 57317.1 279.881
9.97 8.89834e-06 732.954 57203.4 279.75
9.98 8.9076e-06 733.303 57090 279.62
9.99 8.91686e-06 733.652 56976.9 279.489
10 8.92612e-06 734 56864.2 279.359
