[x[mm], Area[m], Velocity[m/s]],[Pressure[Pa], Temperature[K]]
5.001 7.85398e-05 30.6298 270000 403.15
5.002 7.85398e-05 30.6298 270000 403.15
5.003 7.85397e-05 30.6299 270000 403.15
5.004 7.85397e-05 30.6299 270000 403.15
5.005 7.85396e-05 30.6299 270000 403.15
5.006 7.85395e-05 30.63 270000 403.15
5.007 7.85393e-05 30.63 270000 403.15
5.008 7.85392e-05 30.6301 270000 403.15
5.009 7.8539e-05 30.6301 270000 403.15
5.01 7.85389e-05 30.6302 270000 403.15
5.011 7.85387e-05 30.6303 270000 403.15
5.012 7.85384e-05 30.6304 270000 403.15
5.013 7.85382e-05 30.6305 270000 403.15
5.014 7.8538e-05 30.6306 270000 403.15
5.015 7.85377e-05 30.6307 270000 403.15
5.016 7.85374e-05 30.6308 270000 403.15
5.017 7.85371e-05 30.6309 270000 403.15
5.018 7.85367e-05 30.631 270000 403.15
5.019 7.85364e-05 30.6312 270000 403.15
5.02 7.8536e-05 30.6313 270000 403.15
5.021 7.85356e-05 30.6315 270000 403.15
5.022 7.85352e-05 30.6316 270000 403.15
5.023 7.85348e-05 30.6318 270000 403.15
5.024 7.85343e-05 30.632 270000 403.15
5.025 7.85339e-05 30.6322 270000 403.15
5.026 7.85334e-05 30.6324 270000 403.15
5.027 7.85329e-05 30.6325 270000 403.15
5.028 7.85324e-05 30.6328 270000 403.15
5.029 7.85318e-05 30.633 270000 403.15
5.03 7.85312e-05 30.6332 270000 403.15
5.031 7.85307e-05 30.6334 270000 403.15
5.032 7.85301e-05 30.6336 270000 403.15
5.033 7.85294e-05 30.6339 270000 403.15
5.034 7.85288e-05 30.6341 270000 403.15
5.035 7.85282e-05 30.6344 270000 403.15
5.036 7.85275e-05 30.6347 270000 403.15
5.037 7.85268e-05 30.6349 270000 403.15
5.038 7.85261e-05 30.6352 270000 403.15
5.039 7.85253e-05 30.6355 270000 403.15
5.04 7.85246e-05 30.6358 270000 403.15
5.041 7.85238e-05 30.6361 270000 403.15
5.042 7.8523e-05 30.6364 270000 403.15
5.043 7.85222e-05 30.6367 270000 403.15
5.044 7.85214e-05 30.637 270000 403.15
5.045 7.85205e-05 30.6374 270000 403.15
5.046 7.85197e-05 30.6377 270000 403.15
5.047 7.85188e-05 30.6381 270000 403.15
5.048 7.85179e-05 30.6384 270000 403.15
5.049 7.8517e-05 30.6388 270000 403.15
5.05 7.8516e-05 30.6392 270000 403.15
5.051 7.85151e-05 30.6395 270000 403.15
5.052 7.85141e-05 30.6399 270000 403.15
5.053 7.85131e-05 30.6403 270000 403.15
5.054 7.85121e-05 30.6407 270000 403.15
5.055 7.8511e-05 30.6411 269999 403.15
5.056 7.851e-05 30.6415 269999 403.15
5.057 7.85089e-05 30.6419 269999 403.15
5.058 7.85078e-05 30.6424 269999 403.15
5.059 7.85067e-05 30.6428 269999 403.15
5.06 7.85055e-05 30.6433 269999 403.15
5.061 7.85044e-05 30.6437 269999 403.15
5.062 7.85032e-05 30.6442 269999 403.15
5.063 7.8502e-05 30.6446 269999 403.15
5.064 7.85008e-05 30.6451 269999 403.15
5.065 7.84996e-05 30.6456 269999 403.15
5.066 7.84983e-05 30.6461 269999 403.15
5.067 7.84971e-05 30.6466 269999 403.15
5.068 7.84958e-05 30.6471 269999 403.15
5.069 7.84945e-05 30.6476 269999 403.15
5.07 7.84932e-05 30.6481 269999 403.15
5.071 7.84918e-05 30.6486 269999 403.15
5.072 7.84904e-05 30.6492 269999 403.15
5.073 7.84891e-05 30.6497 269999 403.15
5.074 7.84877e-05 30.6503 269999 403.15
5.075 7.84862e-05 30.6508 269999 403.15
5.076 7.84848e-05 30.6514 269999 403.15
5.077 7.84834e-05 30.652 269999 403.15
5.078 7.84819e-05 30.6525 269999 403.15
5.079 7.84804e-05 30.6531 269999 403.15
5.08 7.84789e-05 30.6537 269999 403.15
5.081 7.84773e-05 30.6543 269999 403.15
5.082 7.84758e-05 30.6549 269999 403.15
5.083 7.84742e-05 30.6555 269999 403.15
5.084 7.84726e-05 30.6562 269999 403.15
5.085 7.8471e-05 30.6568 269999 403.15
5.086 7.84694e-05 30.6574 269999 403.15
5.087 7.84677e-05 30.6581 269999 403.15
5.088 7.84661e-05 30.6587 269999 403.15
5.089 7.84644e-05 30.6594 269999 403.15
5.09 7.84627e-05 30.6601 269999 403.15
5.091 7.84609e-05 30.6607 269999 403.15
5.092 7.84592e-05 30.6614 269999 403.15
5.093 7.84574e-05 30.6621 269999 403.15
5.094 7.84557e-05 30.6628 269998 403.15
5.095 7.84539e-05 30.6635 269998 403.15
5.096 7.8452e-05 30.6642 269998 403.15
5.097 7.84502e-05 30.665 269998 403.15
5.098 7.84483e-05 30.6657 269998 403.15
5.099 7.84465e-05 30.6664 269998 403.15
5.1 7.84446e-05 30.6672 269998 403.15
5.101 7.84426e-05 30.6679 269998 403.15
5.102 7.84407e-05 30.6687 269998 403.15
5.103 7.84388e-05 30.6695 269998 403.15
5.104 7.84368e-05 30.6702 269998 403.15
5.105 7.84348e-05 30.671 269998 403.15
5.106 7.84328e-05 30.6718 269998 403.15
5.107 7.84307e-05 30.6726 269998 403.15
5.108 7.84287e-05 30.6734 269998 403.15
5.109 7.84266e-05 30.6742 269998 403.15
5.11 7.84245e-05 30.675 269998 403.15
5.111 7.84224e-05 30.6759 269998 403.15
5.112 7.84203e-05 30.6767 269998 403.15
5.113 7.84182e-05 30.6775 269998 403.15
5.114 7.8416e-05 30.6784 269998 403.15
5.115 7.84138e-05 30.6792 269998 403.15
5.116 7.84116e-05 30.6801 269998 403.15
5.117 7.84094e-05 30.681 269998 403.15
5.118 7.84071e-05 30.6819 269998 403.15
5.119 7.84049e-05 30.6828 269998 403.15
5.12 7.84026e-05 30.6836 269998 403.15
5.121 7.84003e-05 30.6846 269997 403.15
5.122 7.8398e-05 30.6855 269997 403.15
5.123 7.83957e-05 30.6864 269997 403.15
5.124 7.83933e-05 30.6873 269997 403.15
5.125 7.83909e-05 30.6882 269997 403.15
5.126 7.83885e-05 30.6892 269997 403.15
5.127 7.83861e-05 30.6901 269997 403.15
5.128 7.83837e-05 30.6911 269997 403.15
5.129 7.83812e-05 30.692 269997 403.15
5.13 7.83788e-05 30.693 269997 403.15
5.131 7.83763e-05 30.694 269997 403.15
5.132 7.83738e-05 30.695 269997 403.15
5.133 7.83712e-05 30.696 269997 403.15
5.134 7.83687e-05 30.697 269997 403.15
5.135 7.83661e-05 30.698 269997 403.15
5.136 7.83635e-05 30.699 269997 403.15
5.137 7.83609e-05 30.7 269997 403.15
5.138 7.83583e-05 30.7011 269997 403.15
5.139 7.83557e-05 30.7021 269997 403.15
5.14 7.8353e-05 30.7032 269997 403.15
5.141 7.83503e-05 30.7042 269997 403.15
5.142 7.83476e-05 30.7053 269997 403.15
5.143 7.83449e-05 30.7063 269996 403.15
5.144 7.83422e-05 30.7074 269996 403.15
5.145 7.83394e-05 30.7085 269996 403.15
5.146 7.83366e-05 30.7096 269996 403.15
5.147 7.83338e-05 30.7107 269996 403.15
5.148 7.8331e-05 30.7118 269996 403.15
5.149 7.83282e-05 30.7129 269996 403.15
5.15 7.83253e-05 30.714 269996 403.15
5.151 7.83224e-05 30.7152 269996 403.15
5.152 7.83196e-05 30.7163 269996 403.15
5.153 7.83166e-05 30.7175 269996 403.15
5.154 7.83137e-05 30.7186 269996 403.15
5.155 7.83108e-05 30.7198 269996 403.15
5.156 7.83078e-05 30.7209 269996 403.15
5.157 7.83048e-05 30.7221 269996 403.15
5.158 7.83018e-05 30.7233 269996 403.15
5.159 7.82988e-05 30.7245 269996 403.15
5.16 7.82957e-05 30.7257 269996 403.15
5.161 7.82927e-05 30.7269 269996 403.15
5.162 7.82896e-05 30.7281 269995 403.15
5.163 7.82865e-05 30.7293 269995 403.15
5.164 7.82833e-05 30.7306 269995 403.15
5.165 7.82802e-05 30.7318 269995 403.15
5.166 7.8277e-05 30.7331 269995 403.15
5.167 7.82739e-05 30.7343 269995 403.15
5.168 7.82707e-05 30.7356 269995 403.15
5.169 7.82674e-05 30.7368 269995 403.15
5.17 7.82642e-05 30.7381 269995 403.15
5.171 7.82609e-05 30.7394 269995 403.15
5.172 7.82577e-05 30.7407 269995 403.15
5.173 7.82544e-05 30.742 269995 403.15
5.174 7.8251e-05 30.7433 269995 403.15
5.175 7.82477e-05 30.7446 269995 403.15
5.176 7.82444e-05 30.746 269995 403.15
5.177 7.8241e-05 30.7473 269995 403.15
5.178 7.82376e-05 30.7486 269995 403.15
5.179 7.82342e-05 30.75 269994 403.15
5.18 7.82308e-05 30.7513 269994 403.15
5.181 7.82273e-05 30.7527 269994 403.15
5.182 7.82238e-05 30.7541 269994 403.15
5.183 7.82203e-05 30.7554 269994 403.15
5.184 7.82168e-05 30.7568 269994 403.15
5.185 7.82133e-05 30.7582 269994 403.15
5.186 7.82098e-05 30.7596 269994 403.15
5.187 7.82062e-05 30.761 269994 403.15
5.188 7.82026e-05 30.7624 269994 403.15
5.189 7.8199e-05 30.7639 269994 403.15
5.19 7.81954e-05 30.7653 269994 403.15
5.191 7.81917e-05 30.7667 269994 403.15
5.192 7.81881e-05 30.7682 269994 403.15
5.193 7.81844e-05 30.7696 269994 403.15
5.194 7.81807e-05 30.7711 269994 403.15
5.195 7.8177e-05 30.7726 269993 403.15
5.196 7.81732e-05 30.774 269993 403.15
5.197 7.81695e-05 30.7755 269993 403.15
5.198 7.81657e-05 30.777 269993 403.15
5.199 7.81619e-05 30.7785 269993 403.15
5.2 7.81581e-05 30.78 269993 403.15
5.201 7.81542e-05 30.7815 269993 403.15
5.202 7.81504e-05 30.7831 269993 403.15
5.203 7.81465e-05 30.7846 269993 403.15
5.204 7.81426e-05 30.7861 269993 403.15
5.205 7.81387e-05 30.7877 269993 403.15
5.206 7.81348e-05 30.7892 269993 403.15
5.207 7.81308e-05 30.7908 269993 403.15
5.208 7.81268e-05 30.7924 269993 403.15
5.209 7.81228e-05 30.794 269992 403.15
5.21 7.81188e-05 30.7956 269992 403.15
5.211 7.81148e-05 30.7971 269992 403.15
5.212 7.81108e-05 30.7987 269992 403.15
5.213 7.81067e-05 30.8004 269992 403.15
5.214 7.81026e-05 30.802 269992 403.15
5.215 7.80985e-05 30.8036 269992 403.15
5.216 7.80944e-05 30.8052 269992 403.15
5.217 7.80902e-05 30.8069 269992 403.15
5.218 7.80861e-05 30.8085 269992 403.15
5.219 7.80819e-05 30.8102 269992 403.15
5.22 7.80777e-05 30.8119 269992 403.15
5.221 7.80734e-05 30.8135 269992 403.15
5.222 7.80692e-05 30.8152 269991 403.15
5.223 7.80649e-05 30.8169 269991 403.15
5.224 7.80607e-05 30.8186 269991 403.15
5.225 7.80564e-05 30.8203 269991 403.15
5.226 7.8052e-05 30.822 269991 403.15
5.227 7.80477e-05 30.8237 269991 403.15
5.228 7.80433e-05 30.8255 269991 403.15
5.229 7.8039e-05 30.8272 269991 403.15
5.23 7.80346e-05 30.8289 269991 403.15
5.231 7.80301e-05 30.8307 269991 403.15
5.232 7.80257e-05 30.8325 269991 403.15
5.233 7.80212e-05 30.8342 269991 403.15
5.234 7.80168e-05 30.836 269991 403.15
5.235 7.80123e-05 30.8378 269990 403.15
5.236 7.80078e-05 30.8396 269990 403.15
5.237 7.80032e-05 30.8414 269990 403.15
5.238 7.79987e-05 30.8432 269990 403.15
5.239 7.79941e-05 30.845 269990 403.15
5.24 7.79895e-05 30.8468 269990 403.15
5.241 7.79849e-05 30.8487 269990 403.15
5.242 7.79803e-05 30.8505 269990 403.15
5.243 7.79756e-05 30.8523 269990 403.15
5.244 7.79709e-05 30.8542 269990 403.15
5.245 7.79662e-05 30.8561 269990 403.15
5.246 7.79615e-05 30.8579 269990 403.15
5.247 7.79568e-05 30.8598 269989 403.15
5.248 7.79521e-05 30.8617 269989 403.15
5.249 7.79473e-05 30.8636 269989 403.15
5.25 7.79425e-05 30.8655 269989 403.15
5.251 7.79377e-05 30.8674 269989 403.15
5.252 7.79329e-05 30.8693 269989 403.15
5.253 7.7928e-05 30.8713 269989 403.15
5.254 7.79232e-05 30.8732 269989 403.15
5.255 7.79183e-05 30.8751 269989 403.15
5.256 7.79134e-05 30.8771 269989 403.15
5.257 7.79084e-05 30.879 269989 403.15
5.258 7.79035e-05 30.881 269988 403.15
5.259 7.78985e-05 30.883 269988 403.15
5.26 7.78936e-05 30.885 269988 403.15
5.261 7.78886e-05 30.887 269988 403.15
5.262 7.78835e-05 30.889 269988 403.15
5.263 7.78785e-05 30.891 269988 403.15
5.264 7.78734e-05 30.893 269988 403.15
5.265 7.78683e-05 30.895 269988 403.15
5.266 7.78632e-05 30.897 269988 403.15
5.267 7.78581e-05 30.8991 269988 403.15
5.268 7.7853e-05 30.9011 269988 403.15
5.269 7.78478e-05 30.9032 269987 403.15
5.27 7.78427e-05 30.9052 269987 403.15
5.271 7.78375e-05 30.9073 269987 403.15
5.272 7.78322e-05 30.9094 269987 403.15
5.273 7.7827e-05 30.9115 269987 403.15
5.274 7.78217e-05 30.9136 269987 403.15
5.275 7.78165e-05 30.9157 269987 403.15
5.276 7.78112e-05 30.9178 269987 403.15
5.277 7.78059e-05 30.9199 269987 403.15
5.278 7.78005e-05 30.9221 269987 403.15
5.279 7.77952e-05 30.9242 269986 403.15
5.28 7.77898e-05 30.9263 269986 403.15
5.281 7.77844e-05 30.9285 269986 403.15
5.282 7.7779e-05 30.9306 269986 403.15
5.283 7.77736e-05 30.9328 269986 403.15
5.284 7.77681e-05 30.935 269986 403.15
5.285 7.77626e-05 30.9372 269986 403.15
5.286 7.77571e-05 30.9394 269986 403.15
5.287 7.77516e-05 30.9416 269986 403.15
5.288 7.77461e-05 30.9438 269986 403.15
5.289 7.77405e-05 30.946 269985 403.15
5.29 7.7735e-05 30.9482 269985 403.15
5.291 7.77294e-05 30.9505 269985 403.15
5.292 7.77238e-05 30.9527 269985 403.15
5.293 7.77181e-05 30.955 269985 403.15
5.294 7.77125e-05 30.9572 269985 403.15
5.295 7.77068e-05 30.9595 269985 403.15
5.296 7.77011e-05 30.9618 269985 403.15
5.297 7.76954e-05 30.964 269985 403.15
5.298 7.76897e-05 30.9663 269985 403.15
5.299 7.7684e-05 30.9686 269984 403.15
5.3 7.76782e-05 30.9709 269984 403.15
5.301 7.76724e-05 30.9733 269984 403.15
5.302 7.76666e-05 30.9756 269984 403.15
5.303 7.76608e-05 30.9779 269984 403.15
5.304 7.76549e-05 30.9803 269984 403.15
5.305 7.76491e-05 30.9826 269984 403.15
5.306 7.76432e-05 30.985 269984 403.15
5.307 7.76373e-05 30.9873 269984 403.15
5.308 7.76313e-05 30.9897 269983 403.15
5.309 7.76254e-05 30.9921 269983 403.15
5.31 7.76194e-05 30.9945 269983 403.15
5.311 7.76135e-05 30.9969 269983 403.15
5.312 7.76075e-05 30.9993 269983 403.15
5.313 7.76014e-05 31.0017 269983 403.15
5.314 7.75954e-05 31.0041 269983 403.15
5.315 7.75893e-05 31.0066 269983 403.15
5.316 7.75832e-05 31.009 269983 403.15
5.317 7.75771e-05 31.0114 269982 403.15
5.318 7.7571e-05 31.0139 269982 403.15
5.319 7.75649e-05 31.0164 269982 403.15
5.32 7.75587e-05 31.0188 269982 403.15
5.321 7.75525e-05 31.0213 269982 403.15
5.322 7.75463e-05 31.0238 269982 403.15
5.323 7.75401e-05 31.0263 269982 403.15
5.324 7.75339e-05 31.0288 269982 403.15
5.325 7.75276e-05 31.0313 269981 403.15
5.326 7.75213e-05 31.0339 269981 403.15
5.327 7.7515e-05 31.0364 269981 403.15
5.328 7.75087e-05 31.0389 269981 403.15
5.329 7.75024e-05 31.0415 269981 403.15
5.33 7.7496e-05 31.044 269981 403.15
5.331 7.74896e-05 31.0466 269981 403.15
5.332 7.74832e-05 31.0492 269981 403.15
5.333 7.74768e-05 31.0518 269981 403.15
5.334 7.74704e-05 31.0544 269980 403.15
5.335 7.74639e-05 31.057 269980 403.15
5.336 7.74574e-05 31.0596 269980 403.15
5.337 7.74509e-05 31.0622 269980 403.15
5.338 7.74444e-05 31.0648 269980 403.15
5.339 7.74379e-05 31.0674 269980 403.15
5.34 7.74313e-05 31.0701 269980 403.15
5.341 7.74247e-05 31.0727 269980 403.15
5.342 7.74181e-05 31.0754 269979 403.15
5.343 7.74115e-05 31.0781 269979 403.15
5.344 7.74049e-05 31.0807 269979 403.15
5.345 7.73982e-05 31.0834 269979 403.15
5.346 7.73915e-05 31.0861 269979 403.15
5.347 7.73848e-05 31.0888 269979 403.15
5.348 7.73781e-05 31.0915 269979 403.15
5.349 7.73714e-05 31.0942 269979 403.15
5.35 7.73646e-05 31.097 269978 403.15
5.351 7.73578e-05 31.0997 269978 403.15
5.352 7.73511e-05 31.1025 269978 403.15
5.353 7.73442e-05 31.1052 269978 403.15
5.354 7.73374e-05 31.108 269978 403.15
5.355 7.73305e-05 31.1107 269978 403.15
5.356 7.73237e-05 31.1135 269978 403.15
5.357 7.73168e-05 31.1163 269978 403.15
5.358 7.73098e-05 31.1191 269977 403.15
5.359 7.73029e-05 31.1219 269977 403.15
5.36 7.72959e-05 31.1247 269977 403.15
5.361 7.7289e-05 31.1275 269977 403.15
5.362 7.7282e-05 31.1304 269977 403.15
5.363 7.7275e-05 31.1332 269977 403.15
5.364 7.72679e-05 31.1361 269977 403.15
5.365 7.72609e-05 31.1389 269976 403.15
5.366 7.72538e-05 31.1418 269976 403.15
5.367 7.72467e-05 31.1446 269976 403.15
5.368 7.72396e-05 31.1475 269976 403.15
5.369 7.72324e-05 31.1504 269976 403.15
5.37 7.72253e-05 31.1533 269976 403.15
5.371 7.72181e-05 31.1562 269976 403.15
5.372 7.72109e-05 31.1591 269976 403.15
5.373 7.72037e-05 31.1621 269975 403.15
5.374 7.71964e-05 31.165 269975 403.15
5.375 7.71892e-05 31.1679 269975 403.15
5.376 7.71819e-05 31.1709 269975 403.15
5.377 7.71746e-05 31.1739 269975 403.15
5.378 7.71673e-05 31.1768 269975 403.15
5.379 7.71599e-05 31.1798 269975 403.15
5.38 7.71526e-05 31.1828 269974 403.15
5.381 7.71452e-05 31.1858 269974 403.15
5.382 7.71378e-05 31.1888 269974 403.15
5.383 7.71304e-05 31.1918 269974 403.15
5.384 7.71229e-05 31.1948 269974 403.15
5.385 7.71155e-05 31.1978 269974 403.15
5.386 7.7108e-05 31.2009 269974 403.15
5.387 7.71005e-05 31.2039 269973 403.15
5.388 7.7093e-05 31.207 269973 403.15
5.389 7.70854e-05 31.2101 269973 403.15
5.39 7.70779e-05 31.2131 269973 403.15
5.391 7.70703e-05 31.2162 269973 403.15
5.392 7.70627e-05 31.2193 269973 403.15
5.393 7.70551e-05 31.2224 269973 403.15
5.394 7.70474e-05 31.2255 269972 403.15
5.395 7.70398e-05 31.2286 269972 403.15
5.396 7.70321e-05 31.2318 269972 403.15
5.397 7.70244e-05 31.2349 269972 403.15
5.398 7.70167e-05 31.238 269972 403.15
5.399 7.70089e-05 31.2412 269972 403.15
5.4 7.70012e-05 31.2444 269972 403.15
5.401 7.69934e-05 31.2475 269971 403.15
5.402 7.69856e-05 31.2507 269971 403.15
5.403 7.69778e-05 31.2539 269971 403.15
5.404 7.69699e-05 31.2571 269971 403.15
5.405 7.69621e-05 31.2603 269971 403.15
5.406 7.69542e-05 31.2635 269971 403.15
5.407 7.69463e-05 31.2667 269971 403.15
5.408 7.69383e-05 31.27 269970 403.15
5.409 7.69304e-05 31.2732 269970 403.15
5.41 7.69224e-05 31.2765 269970 403.15
5.411 7.69144e-05 31.2797 269970 403.15
5.412 7.69064e-05 31.283 269970 403.15
5.413 7.68984e-05 31.2863 269970 403.15
5.414 7.68904e-05 31.2896 269969 403.15
5.415 7.68823e-05 31.2929 269969 403.15
5.416 7.68742e-05 31.2962 269969 403.15
5.417 7.68661e-05 31.2995 269969 403.15
5.418 7.6858e-05 31.3028 269969 403.15
5.419 7.68498e-05 31.3061 269969 403.15
5.42 7.68417e-05 31.3095 269969 403.15
5.421 7.68335e-05 31.3128 269968 403.15
5.422 7.68253e-05 31.3162 269968 403.15
5.423 7.6817e-05 31.3196 269968 403.15
5.424 7.68088e-05 31.3229 269968 403.15
5.425 7.68005e-05 31.3263 269968 403.15
5.426 7.67922e-05 31.3297 269968 403.15
5.427 7.67839e-05 31.3331 269967 403.15
5.428 7.67756e-05 31.3365 269967 403.15
5.429 7.67672e-05 31.34 269967 403.15
5.43 7.67588e-05 31.3434 269967 403.15
5.431 7.67504e-05 31.3468 269967 403.15
5.432 7.6742e-05 31.3503 269967 403.15
5.433 7.67336e-05 31.3537 269966 403.15
5.434 7.67251e-05 31.3572 269966 403.15
5.435 7.67167e-05 31.3607 269966 403.15
5.436 7.67082e-05 31.3642 269966 403.15
5.437 7.66997e-05 31.3677 269966 403.15
5.438 7.66911e-05 31.3712 269966 403.15
5.439 7.66826e-05 31.3747 269965 403.15
5.44 7.6674e-05 31.3782 269965 403.15
5.441 7.66654e-05 31.3818 269965 403.15
5.442 7.66568e-05 31.3853 269965 403.15
5.443 7.66481e-05 31.3889 269965 403.15
5.444 7.66395e-05 31.3924 269965 403.15
5.445 7.66308e-05 31.396 269964 403.15
5.446 7.66221e-05 31.3996 269964 403.15
5.447 7.66134e-05 31.4032 269964 403.15
5.448 7.66046e-05 31.4068 269964 403.15
5.449 7.65958e-05 31.4104 269964 403.15
5.45 7.65871e-05 31.414 269964 403.15
5.451 7.65783e-05 31.4176 269963 403.15
5.452 7.65694e-05 31.4212 269963 403.15
5.453 7.65606e-05 31.4249 269963 403.15
5.454 7.65517e-05 31.4285 269963 403.15
5.455 7.65428e-05 31.4322 269963 403.15
5.456 7.65339e-05 31.4359 269963 403.15
5.457 7.6525e-05 31.4396 269962 403.15
5.458 7.65161e-05 31.4433 269962 403.15
5.459 7.65071e-05 31.447 269962 403.15
5.46 7.64981e-05 31.4507 269962 403.15
5.461 7.64891e-05 31.4544 269962 403.15
5.462 7.648e-05 31.4581 269962 403.15
5.463 7.6471e-05 31.4619 269961 403.15
5.464 7.64619e-05 31.4656 269961 403.15
5.465 7.64528e-05 31.4694 269961 403.15
5.466 7.64437e-05 31.4731 269961 403.15
5.467 7.64346e-05 31.4769 269961 403.15
5.468 7.64254e-05 31.4807 269960 403.15
5.469 7.64162e-05 31.4845 269960 403.15
5.47 7.64071e-05 31.4883 269960 403.15
5.471 7.63978e-05 31.4921 269960 403.15
5.472 7.63886e-05 31.4959 269960 403.15
5.473 7.63793e-05 31.4998 269960 403.15
5.474 7.63701e-05 31.5036 269959 403.15
5.475 7.63608e-05 31.5075 269959 403.15
5.476 7.63514e-05 31.5113 269959 403.15
5.477 7.63421e-05 31.5152 269959 403.15
5.478 7.63327e-05 31.5191 269959 403.15
5.479 7.63233e-05 31.523 269959 403.15
5.48 7.63139e-05 31.5269 269958 403.15
5.481 7.63045e-05 31.5308 269958 403.15
5.482 7.62951e-05 31.5347 269958 403.15
5.483 7.62856e-05 31.5386 269958 403.15
5.484 7.62761e-05 31.5426 269958 403.15
5.485 7.62666e-05 31.5465 269957 403.15
5.486 7.62571e-05 31.5505 269957 403.15
5.487 7.62475e-05 31.5544 269957 403.15
5.488 7.62379e-05 31.5584 269957 403.15
5.489 7.62283e-05 31.5624 269957 403.15
5.49 7.62187e-05 31.5664 269956 403.15
5.491 7.62091e-05 31.5704 269956 403.15
5.492 7.61994e-05 31.5744 269956 403.15
5.493 7.61898e-05 31.5785 269956 403.15
5.494 7.61801e-05 31.5825 269956 403.15
5.495 7.61703e-05 31.5865 269956 403.15
5.496 7.61606e-05 31.5906 269955 403.15
5.497 7.61508e-05 31.5947 269955 403.15
5.498 7.61411e-05 31.5987 269955 403.15
5.499 7.61313e-05 31.6028 269955 403.15
5.5 7.61214e-05 31.6069 269955 403.15
5.501 7.61116e-05 31.611 269954 403.15
5.502 7.61017e-05 31.6151 269954 403.15
